Data from In line play test T piece AgNO3 1mM AgNP synth sodium citrate background_Absorbance__45__14-08-35-316.txt Node

Date: Tue Feb 16 14:08:35 GMT 2021
User: premsi
Spectrometer: FLMS16051
Trigger mode: 0
Integration Time (sec): 7.062000E-2
Scans to average: 10
Electric dark correction enabled: true
Nonlinearity correction enabled: true
Boxcar width: 10
XAxis mode: Wavelengths
Number of Pixels in Spectrum: 2048
>>>>>Begin Spectral Data<<<<<
177.471	1.1
177.858	1.4
178.245	-0.21
178.632	0.17
179.019	0.16
179.406	0.05
179.792	-0.09
180.179	-0.07
180.566	0.48
180.953	0.33
181.34	-0.21
181.726	1.06
182.113	0.34
182.499	-0.38
182.886	-0.44
183.273	-0.49
183.659	-0.53
184.045	-0.55
184.432	-0.57
184.818	-0.59
185.205	-0.61
185.591	-0.63
185.977	-0.64
186.363	-0.66
186.75	-0.68
187.136	-0.69
187.522	-0.71
187.908	-0.72
188.294	-0.73
188.68	-0.75
189.066	-0.76
189.452	-0.77
189.838	-0.79
190.224	-0.8
190.609	-0.81
190.995	-0.84
191.381	-0.86
191.767	-0.88
192.152	-0.89
192.538	-0.91
192.923	-0.93
193.309	-0.94
193.694	-0.95
194.08	-0.97
194.465	-0.98
194.851	-1
195.236	-1.01
195.621	-1.02
196.007	-1.03
196.392	-1.04
196.777	-1.05
197.162	-1.06
197.547	-1.08
197.933	-1.08
198.318	-1.09
198.703	-1.1
199.088	-1.11
199.473	-1.12
199.857	-1.13
200.242	-1.13
200.627	-1.14
201.012	-1.15
201.397	-1.16
201.781	-1.17
202.166	-1.18
202.551	-1.18
202.935	-1.19
203.32	-1.2
203.704	-1.2
204.089	-1.21
204.473	-1.22
204.858	-1.22
205.242	-1.23
205.626	-1.23
206.011	-1.24
206.395	-1.24
206.779	-1.25
207.163	-1.25
207.548	-1.25
207.932	-1.26
208.316	-1.26
208.7	-1.26
209.084	-1.26
209.468	-1.26
209.852	-1.26
210.235	-1.26
210.619	-1.26
211.003	-1.26
211.387	-1.26
211.771	-1.25
212.154	-1.25
212.538	-1.24
212.921	-1.23
213.305	-1.22
213.689	-1.21
214.072	-1.19
214.456	-1.17
214.839	-1.15
215.222	-1.13
215.606	-1.11
215.989	-1.08
216.372	-1.05
216.755	-1.03
217.139	-1
217.522	-0.97
217.905	-0.93
218.288	-0.9
218.671	-0.86
219.054	-0.83
219.437	-0.79
219.82	-0.76
220.203	-0.72
220.586	-0.69
220.968	-0.65
221.351	-0.62
221.734	-0.59
222.117	-0.56
222.499	-0.53
222.882	-0.5
223.264	-0.47
223.647	-0.44
224.029	-0.42
224.412	-0.39
224.794	-0.36
225.177	-0.34
225.559	-0.32
225.941	-0.3
226.324	-0.28
226.706	-0.26
227.088	-0.24
227.47	-0.22
227.852	-0.2
228.234	-0.19
228.616	-0.17
228.998	-0.16
229.38	-0.14
229.762	-0.13
230.144	-0.12
230.526	-0.11
230.908	-0.09
231.289	-0.08
231.671	-0.07
232.053	-0.07
232.435	-0.06
232.816	-0.05
233.198	-0.04
233.579	-0.03
233.961	-0.03
234.342	-0.02
234.724	-0.01
235.105	-0.01
235.486	-0
235.868	0
236.249	0.01
236.63	0.01
237.011	0.02
237.392	0.02
237.773	0.02
238.154	0.03
238.536	0.03
238.917	0.03
239.297	0.04
239.678	0.04
240.059	0.04
240.44	0.04
240.821	0.05
241.202	0.05
241.582	0.05
241.963	0.05
242.344	0.06
242.724	0.06
243.105	0.06
243.485	0.06
243.866	0.06
244.246	0.07
244.627	0.07
245.007	0.07
245.387	0.07
245.768	0.07
246.148	0.08
246.528	0.08
246.908	0.08
247.288	0.08
247.668	0.08
248.048	0.08
248.428	0.09
248.808	0.09
249.188	0.09
249.568	0.09
249.948	0.09
250.328	0.09
250.708	0.09
251.087	0.09
251.467	0.09
251.847	0.09
252.226	0.1
252.606	0.1
252.985	0.1
253.365	0.1
253.744	0.1
254.124	0.1
254.503	0.1
254.882	0.1
255.262	0.1
255.641	0.1
256.02	0.1
256.399	0.1
256.779	0.09
257.158	0.09
257.537	0.09
257.916	0.09
258.295	0.09
258.674	0.09
259.053	0.09
259.431	0.09
259.81	0.09
260.189	0.09
260.568	0.09
260.946	0.09
261.325	0.09
261.704	0.08
262.082	0.08
262.461	0.08
262.839	0.08
263.218	0.08
263.596	0.08
263.975	0.08
264.353	0.08
264.731	0.08
265.11	0.08
265.488	0.08
265.866	0.08
266.244	0.08
266.622	0.08
267	0.08
267.378	0.08
267.756	0.07
268.134	0.07
268.512	0.07
268.89	0.07
269.268	0.07
269.646	0.07
270.024	0.07
270.401	0.07
270.779	0.07
271.157	0.07
271.534	0.07
271.912	0.07
272.289	0.07
272.667	0.07
273.044	0.07
273.422	0.07
273.799	0.07
274.176	0.07
274.554	0.07
274.931	0.07
275.308	0.07
275.685	0.07
276.062	0.07
276.439	0.07
276.816	0.07
277.193	0.07
277.57	0.07
277.947	0.07
278.324	0.07
278.701	0.07
279.078	0.07
279.454	0.07
279.831	0.07
280.208	0.07
280.584	0.07
280.961	0.07
281.338	0.07
281.714	0.07
282.091	0.07
282.467	0.07
282.843	0.07
283.22	0.07
283.596	0.07
283.972	0.07
284.349	0.07
284.725	0.07
285.101	0.07
285.477	0.07
285.853	0.07
286.229	0.07
286.605	0.07
286.981	0.07
287.357	0.07
287.733	0.07
288.109	0.07
288.485	0.07
288.86	0.07
289.236	0.07
289.612	0.07
289.987	0.07
290.363	0.07
290.738	0.07
291.114	0.07
291.489	0.07
291.865	0.07
292.24	0.07
292.616	0.07
292.991	0.07
293.366	0.07
293.741	0.07
294.117	0.07
294.492	0.07
294.867	0.07
295.242	0.07
295.617	0.07
295.992	0.07
296.367	0.07
296.742	0.07
297.117	0.07
297.491	0.07
297.866	0.07
298.241	0.06
298.616	0.06
298.99	0.06
299.365	0.06
299.74	0.06
300.114	0.06
300.489	0.06
300.863	0.06
301.237	0.06
301.612	0.06
301.986	0.06
302.36	0.06
302.735	0.06
303.109	0.06
303.483	0.06
303.857	0.06
304.231	0.05
304.605	0.05
304.979	0.05
305.353	0.05
305.727	0.05
306.101	0.05
306.475	0.05
306.849	0.05
307.223	0.05
307.596	0.04
307.97	0.04
308.344	0.04
308.717	0.04
309.091	0.04
309.464	0.04
309.838	0.04
310.211	0.03
310.585	0.03
310.958	0.03
311.331	0.03
311.705	0.03
312.078	0.03
312.451	0.02
312.824	0.02
313.197	0.02
313.57	0.02
313.943	0.02
314.316	0.02
314.689	0.02
315.062	0.01
315.435	0.01
315.808	0.01
316.181	0.01
316.553	0.01
316.926	0.01
317.299	0
317.671	0
318.044	0
318.417	0
318.789	-0
319.161	-0
319.534	-0
319.906	-0
320.279	-0.01
320.651	-0.01
321.023	-0.01
321.395	-0.01
321.767	-0.01
322.14	-0.01
322.512	-0.01
322.884	-0.01
323.256	-0.01
323.628	-0.01
324	-0.01
324.371	-0.01
324.743	-0.01
325.115	-0.01
325.487	-0.01
325.859	-0.01
326.23	-0.01
326.602	-0.01
326.973	-0
327.345	-0
327.717	-0
328.088	-0
328.459	0
328.831	0
329.202	0
329.573	0.01
329.945	0.01
330.316	0.01
330.687	0.01
331.058	0.01
331.429	0.02
331.8	0.02
332.171	0.02
332.542	0.02
332.913	0.02
333.284	0.03
333.655	0.03
334.026	0.03
334.397	0.03
334.767	0.04
335.138	0.04
335.509	0.04
335.879	0.05
336.25	0.05
336.62	0.05
336.991	0.05
337.361	0.06
337.732	0.06
338.102	0.06
338.472	0.06
338.842	0.07
339.213	0.07
339.583	0.07
339.953	0.08
340.323	0.08
340.693	0.08
341.063	0.08
341.433	0.09
341.803	0.09
342.173	0.09
342.543	0.09
342.913	0.1
343.282	0.1
343.652	0.1
344.022	0.1
344.391	0.11
344.761	0.11
345.13	0.11
345.5	0.11
345.869	0.12
346.239	0.12
346.608	0.12
346.978	0.12
347.347	0.12
347.716	0.13
348.085	0.13
348.455	0.13
348.824	0.13
349.193	0.13
349.562	0.13
349.931	0.14
350.3	0.14
350.669	0.14
351.038	0.14
351.406	0.14
351.775	0.14
352.144	0.15
352.513	0.15
352.881	0.15
353.25	0.15
353.619	0.15
353.987	0.15
354.356	0.16
354.724	0.16
355.092	0.16
355.461	0.16
355.829	0.16
356.197	0.16
356.566	0.16
356.934	0.16
357.302	0.17
357.67	0.17
358.038	0.17
358.406	0.17
358.774	0.17
359.142	0.17
359.51	0.17
359.878	0.17
360.246	0.17
360.614	0.18
360.981	0.18
361.349	0.18
361.717	0.18
362.084	0.18
362.452	0.18
362.819	0.18
363.187	0.18
363.554	0.18
363.922	0.18
364.289	0.19
364.656	0.19
365.024	0.19
365.391	0.19
365.758	0.19
366.125	0.19
366.492	0.19
366.859	0.19
367.227	0.19
367.593	0.19
367.96	0.19
368.327	0.19
368.694	0.19
369.061	0.2
369.428	0.2
369.794	0.2
370.161	0.2
370.528	0.2
370.894	0.2
371.261	0.2
371.627	0.2
371.994	0.2
372.36	0.2
372.727	0.2
373.093	0.2
373.459	0.2
373.826	0.2
374.192	0.2
374.558	0.21
374.924	0.21
375.29	0.21
375.656	0.21
376.022	0.21
376.388	0.21
376.754	0.21
377.12	0.21
377.486	0.21
377.852	0.21
378.217	0.21
378.583	0.21
378.949	0.21
379.314	0.21
379.68	0.21
380.045	0.21
380.411	0.21
380.776	0.22
381.142	0.22
381.507	0.22
381.872	0.22
382.238	0.22
382.603	0.22
382.968	0.22
383.333	0.22
383.698	0.22
384.063	0.22
384.428	0.22
384.793	0.22
385.158	0.22
385.523	0.22
385.888	0.22
386.253	0.22
386.618	0.22
386.982	0.22
387.347	0.22
387.712	0.22
388.076	0.22
388.441	0.22
388.805	0.22
389.17	0.22
389.534	0.22
389.898	0.22
390.263	0.22
390.627	0.22
390.991	0.22
391.356	0.22
391.72	0.22
392.084	0.22
392.448	0.22
392.812	0.22
393.176	0.23
393.54	0.23
393.904	0.23
394.268	0.23
394.631	0.23
394.995	0.23
395.359	0.23
395.723	0.23
396.086	0.23
396.45	0.23
396.813	0.23
397.177	0.23
397.54	0.23
397.904	0.23
398.267	0.23
398.63	0.23
398.994	0.23
399.357	0.23
399.72	0.23
400.083	0.23
400.446	0.23
400.809	0.23
401.173	0.23
401.535	0.23
401.898	0.23
402.261	0.23
402.624	0.23
402.987	0.23
403.35	0.23
403.712	0.23
404.075	0.23
404.438	0.23
404.8	0.23
405.163	0.23
405.525	0.23
405.888	0.23
406.25	0.23
406.613	0.23
406.975	0.23
407.337	0.23
407.7	0.23
408.062	0.23
408.424	0.23
408.786	0.23
409.148	0.23
409.51	0.23
409.872	0.23
410.234	0.23
410.596	0.23
410.958	0.23
411.32	0.23
411.681	0.23
412.043	0.23
412.405	0.23
412.766	0.23
413.128	0.23
413.49	0.23
413.851	0.23
414.213	0.23
414.574	0.23
414.935	0.23
415.297	0.23
415.658	0.23
416.019	0.23
416.38	0.23
416.742	0.23
417.103	0.23
417.464	0.23
417.825	0.23
418.186	0.23
418.547	0.23
418.908	0.23
419.268	0.23
419.629	0.23
419.99	0.23
420.351	0.23
420.711	0.23
421.072	0.23
421.433	0.23
421.793	0.23
422.154	0.23
422.514	0.23
422.874	0.23
423.235	0.23
423.595	0.23
423.955	0.23
424.316	0.23
424.676	0.23
425.036	0.23
425.396	0.23
425.756	0.23
426.116	0.23
426.476	0.23
426.836	0.23
427.196	0.24
427.556	0.24
427.915	0.24
428.275	0.24
428.635	0.24
428.995	0.24
429.354	0.24
429.714	0.24
430.073	0.24
430.433	0.24
430.792	0.24
431.152	0.24
431.511	0.24
431.87	0.24
432.229	0.24
432.589	0.24
432.948	0.24
433.307	0.24
433.666	0.24
434.025	0.24
434.384	0.24
434.743	0.24
435.102	0.24
435.461	0.24
435.82	0.24
436.178	0.25
436.537	0.25
436.896	0.25
437.254	0.25
437.613	0.25
437.972	0.25
438.33	0.25
438.689	0.25
439.047	0.25
439.405	0.25
439.764	0.25
440.122	0.25
440.48	0.25
440.838	0.25
441.196	0.25
441.555	0.25
441.913	0.25
442.271	0.25
442.629	0.25
442.987	0.25
443.344	0.25
443.702	0.25
444.06	0.25
444.418	0.25
444.776	0.26
445.133	0.26
445.491	0.26
445.848	0.26
446.206	0.26
446.563	0.26
446.921	0.26
447.278	0.26
447.636	0.26
447.993	0.26
448.35	0.26
448.707	0.26
449.064	0.26
449.422	0.26
449.779	0.26
450.136	0.26
450.493	0.26
450.85	0.26
451.206	0.26
451.563	0.26
451.92	0.26
452.277	0.26
452.634	0.26
452.99	0.27
453.347	0.27
453.704	0.27
454.06	0.27
454.417	0.27
454.773	0.27
455.129	0.27
455.486	0.27
455.842	0.27
456.198	0.27
456.555	0.27
456.911	0.27
457.267	0.27
457.623	0.27
457.979	0.27
458.335	0.27
458.691	0.27
459.047	0.27
459.403	0.27
459.759	0.28
460.114	0.28
460.47	0.28
460.826	0.28
461.181	0.28
461.537	0.28
461.892	0.28
462.248	0.28
462.603	0.28
462.959	0.28
463.314	0.28
463.67	0.28
464.025	0.28
464.38	0.28
464.735	0.28
465.09	0.28
465.445	0.28
465.801	0.28
466.156	0.28
466.51	0.28
466.865	0.28
467.22	0.28
467.575	0.28
467.93	0.28
468.285	0.28
468.639	0.28
468.994	0.29
469.349	0.29
469.703	0.29
470.058	0.29
470.412	0.29
470.766	0.29
471.121	0.29
471.475	0.29
471.829	0.29
472.184	0.29
472.538	0.29
472.892	0.29
473.246	0.29
473.6	0.29
473.954	0.29
474.308	0.29
474.662	0.29
475.016	0.29
475.37	0.29
475.723	0.29
476.077	0.29
476.431	0.29
476.785	0.29
477.138	0.29
477.492	0.29
477.845	0.29
478.199	0.29
478.552	0.29
478.905	0.29
479.259	0.3
479.612	0.3
479.965	0.3
480.318	0.3
480.672	0.3
481.025	0.3
481.378	0.3
481.731	0.3
482.084	0.3
482.437	0.3
482.789	0.3
483.142	0.3
483.495	0.3
483.848	0.3
484.2	0.3
484.553	0.3
484.906	0.3
485.258	0.3
485.611	0.3
485.963	0.31
486.316	0.31
486.668	0.31
487.02	0.31
487.373	0.31
487.725	0.31
488.077	0.31
488.429	0.31
488.781	0.31
489.133	0.31
489.485	0.31
489.837	0.31
490.189	0.31
490.541	0.31
490.893	0.31
491.245	0.31
491.596	0.31
491.948	0.31
492.3	0.31
492.651	0.31
493.003	0.31
493.354	0.31
493.706	0.31
494.057	0.31
494.408	0.31
494.76	0.31
495.111	0.31
495.462	0.31
495.813	0.31
496.164	0.31
496.515	0.31
496.867	0.31
497.217	0.31
497.568	0.31
497.919	0.31
498.27	0.31
498.621	0.31
498.972	0.31
499.322	0.31
499.673	0.31
500.024	0.31
500.374	0.31
500.725	0.31
501.075	0.31
501.426	0.31
501.776	0.31
502.126	0.31
502.477	0.31
502.827	0.31
503.177	0.31
503.527	0.31
503.877	0.31
504.227	0.31
504.577	0.31
504.927	0.31
505.277	0.31
505.627	0.31
505.977	0.31
506.327	0.31
506.677	0.31
507.026	0.31
507.376	0.31
507.725	0.31
508.075	0.31
508.424	0.31
508.774	0.31
509.123	0.31
509.473	0.31
509.822	0.31
510.171	0.32
510.521	0.32
510.87	0.32
511.219	0.32
511.568	0.32
511.917	0.32
512.266	0.32
512.615	0.32
512.964	0.32
513.313	0.32
513.661	0.32
514.01	0.32
514.359	0.32
514.708	0.32
515.056	0.32
515.405	0.32
515.753	0.32
516.102	0.32
516.45	0.32
516.799	0.32
517.147	0.32
517.495	0.32
517.843	0.32
518.192	0.32
518.54	0.32
518.888	0.32
519.236	0.32
519.584	0.32
519.932	0.32
520.28	0.32
520.628	0.32
520.975	0.32
521.323	0.32
521.671	0.32
522.019	0.32
522.366	0.32
522.714	0.32
523.061	0.32
523.409	0.32
523.756	0.32
524.104	0.32
524.451	0.32
524.798	0.32
525.146	0.32
525.493	0.32
525.84	0.32
526.187	0.32
526.534	0.32
526.881	0.32
527.228	0.32
527.575	0.32
527.922	0.32
528.269	0.32
528.616	0.32
528.962	0.32
529.309	0.32
529.656	0.32
530.002	0.32
530.349	0.32
530.695	0.32
531.042	0.32
531.388	0.32
531.735	0.32
532.081	0.32
532.427	0.32
532.773	0.32
533.12	0.32
533.466	0.32
533.812	0.32
534.158	0.32
534.504	0.32
534.85	0.32
535.196	0.32
535.541	0.32
535.887	0.32
536.233	0.32
536.579	0.32
536.924	0.32
537.27	0.32
537.615	0.32
537.961	0.33
538.306	0.33
538.652	0.33
538.997	0.33
539.343	0.33
539.688	0.33
540.033	0.33
540.378	0.34
540.723	0.34
541.068	0.34
541.414	0.34
541.758	0.34
542.103	0.34
542.448	0.35
542.793	0.35
543.138	0.35
543.483	0.35
543.827	0.35
544.172	0.35
544.517	0.35
544.861	0.35
545.206	0.35
545.55	0.35
545.895	0.35
546.239	0.35
546.583	0.35
546.928	0.35
547.272	0.34
547.616	0.34
547.96	0.34
548.304	0.34
548.648	0.34
548.992	0.34
549.336	0.34
549.68	0.33
550.024	0.33
550.368	0.33
550.712	0.33
551.055	0.33
551.399	0.33
551.743	0.33
552.086	0.33
552.43	0.33
552.773	0.33
553.116	0.32
553.46	0.32
553.803	0.32
554.146	0.32
554.49	0.32
554.833	0.32
555.176	0.32
555.519	0.32
555.862	0.32
556.205	0.32
556.548	0.32
556.891	0.32
557.234	0.32
557.577	0.32
557.919	0.32
558.262	0.32
558.605	0.32
558.947	0.32
559.29	0.32
559.632	0.32
559.975	0.32
560.317	0.32
560.66	0.32
561.002	0.32
561.344	0.32
561.686	0.32
562.029	0.32
562.371	0.32
562.713	0.32
563.055	0.32
563.397	0.32
563.739	0.32
564.081	0.32
564.422	0.32
564.764	0.32
565.106	0.32
565.448	0.32
565.789	0.32
566.131	0.32
566.472	0.32
566.814	0.32
567.155	0.32
567.497	0.32
567.838	0.32
568.179	0.32
568.521	0.32
568.862	0.32
569.203	0.32
569.544	0.32
569.885	0.32
570.226	0.32
570.567	0.32
570.908	0.32
571.249	0.32
571.59	0.32
571.931	0.32
572.271	0.32
572.612	0.32
572.953	0.32
573.293	0.32
573.634	0.32
573.974	0.32
574.315	0.32
574.655	0.32
574.995	0.32
575.336	0.32
575.676	0.32
576.016	0.32
576.356	0.32
576.696	0.32
577.036	0.32
577.376	0.32
577.716	0.32
578.056	0.32
578.396	0.32
578.736	0.32
579.076	0.32
579.415	0.32
579.755	0.32
580.095	0.32
580.434	0.32
580.774	0.32
581.113	0.32
581.453	0.32
581.792	0.32
582.131	0.32
582.471	0.32
582.81	0.32
583.149	0.32
583.488	0.32
583.827	0.32
584.166	0.32
584.505	0.32
584.844	0.32
585.183	0.32
585.522	0.32
585.861	0.32
586.199	0.32
586.538	0.32
586.877	0.32
587.215	0.32
587.554	0.32
587.892	0.32
588.231	0.32
588.569	0.32
588.907	0.32
589.246	0.32
589.584	0.32
589.922	0.32
590.26	0.32
590.598	0.32
590.936	0.32
591.274	0.32
591.612	0.32
591.95	0.32
592.288	0.32
592.626	0.32
592.964	0.32
593.301	0.32
593.639	0.32
593.977	0.32
594.314	0.32
594.652	0.32
594.989	0.32
595.327	0.32
595.664	0.32
596.001	0.32
596.339	0.32
596.676	0.32
597.013	0.32
597.35	0.31
597.687	0.31
598.024	0.31
598.361	0.31
598.698	0.31
599.035	0.31
599.372	0.31
599.708	0.31
600.045	0.31
600.382	0.31
600.718	0.31
601.055	0.31
601.392	0.31
601.728	0.31
602.064	0.31
602.401	0.31
602.737	0.31
603.073	0.31
603.41	0.31
603.746	0.31
604.082	0.31
604.418	0.31
604.754	0.31
605.09	0.31
605.426	0.31
605.762	0.31
606.098	0.31
606.434	0.31
606.769	0.31
607.105	0.31
607.441	0.31
607.776	0.31
608.112	0.32
608.447	0.32
608.783	0.32
609.118	0.32
609.453	0.32
609.789	0.32
610.124	0.32
610.459	0.33
610.794	0.33
611.129	0.33
611.464	0.33
611.799	0.33
612.134	0.33
612.469	0.33
612.804	0.33
613.139	0.33
613.474	0.33
613.808	0.33
614.143	0.33
614.478	0.33
614.812	0.32
615.147	0.32
615.481	0.32
615.816	0.32
616.15	0.32
616.484	0.32
616.818	0.31
617.153	0.31
617.487	0.31
617.821	0.31
618.155	0.31
618.489	0.31
618.823	0.31
619.157	0.31
619.491	0.31
619.824	0.31
620.158	0.31
620.492	0.31
620.826	0.3
621.159	0.3
621.493	0.3
621.826	0.3
622.16	0.3
622.493	0.3
622.826	0.3
623.16	0.3
623.493	0.3
623.826	0.3
624.159	0.3
624.492	0.3
624.825	0.3
625.158	0.3
625.491	0.3
625.824	0.3
626.157	0.3
626.49	0.3
626.823	0.3
627.155	0.3
627.488	0.3
627.821	0.3
628.153	0.3
628.486	0.3
628.818	0.3
629.151	0.3
629.483	0.3
629.815	0.3
630.148	0.3
630.48	0.3
630.812	0.3
631.144	0.3
631.476	0.3
631.808	0.3
632.14	0.3
632.472	0.3
632.804	0.3
633.136	0.3
633.467	0.3
633.799	0.3
634.131	0.3
634.462	0.3
634.794	0.3
635.125	0.3
635.457	0.3
635.788	0.3
636.12	0.3
636.451	0.29
636.782	0.29
637.113	0.29
637.444	0.29
637.776	0.29
638.107	0.29
638.438	0.29
638.769	0.29
639.099	0.29
639.43	0.29
639.761	0.29
640.092	0.29
640.422	0.29
640.753	0.29
641.084	0.29
641.414	0.29
641.745	0.29
642.075	0.29
642.406	0.29
642.736	0.29
643.066	0.29
643.396	0.29
643.727	0.29
644.057	0.29
644.387	0.29
644.717	0.29
645.047	0.29
645.377	0.29
645.707	0.29
646.037	0.29
646.366	0.29
646.696	0.29
647.026	0.29
647.355	0.29
647.685	0.29
648.015	0.29
648.344	0.29
648.673	0.29
649.003	0.29
649.332	0.29
649.661	0.29
649.991	0.29
650.32	0.29
650.649	0.29
650.978	0.29
651.307	0.29
651.636	0.29
651.965	0.29
652.294	0.29
652.623	0.29
652.951	0.3
653.28	0.3
653.609	0.3
653.937	0.3
654.266	0.3
654.594	0.3
654.923	0.3
655.251	0.3
655.58	0.3
655.908	0.3
656.236	0.3
656.565	0.3
656.893	0.3
657.221	0.3
657.549	0.3
657.877	0.3
658.205	0.3
658.533	0.3
658.861	0.3
659.188	0.29
659.516	0.29
659.844	0.28
660.171	0.28
660.499	0.28
660.827	0.28
661.154	0.28
661.482	0.28
661.809	0.28
662.136	0.28
662.464	0.28
662.791	0.28
663.118	0.28
663.445	0.28
663.772	0.28
664.099	0.28
664.426	0.28
664.753	0.28
665.08	0.28
665.407	0.28
665.734	0.28
666.06	0.28
666.387	0.28
666.714	0.28
667.04	0.28
667.367	0.28
667.693	0.28
668.02	0.28
668.346	0.28
668.672	0.28
668.999	0.28
669.325	0.28
669.651	0.28
669.977	0.28
670.303	0.28
670.629	0.28
670.955	0.28
671.281	0.28
671.607	0.28
671.933	0.27
672.258	0.27
672.584	0.27
672.91	0.27
673.235	0.27
673.561	0.27
673.886	0.27
674.212	0.27
674.537	0.27
674.863	0.27
675.188	0.27
675.513	0.27
675.838	0.27
676.163	0.27
676.489	0.27
676.814	0.27
677.139	0.27
677.464	0.27
677.788	0.27
678.113	0.27
678.438	0.27
678.763	0.27
679.087	0.27
679.412	0.27
679.737	0.27
680.061	0.27
680.386	0.27
680.71	0.27
681.034	0.27
681.359	0.27
681.683	0.27
682.007	0.27
682.331	0.27
682.655	0.27
682.979	0.27
683.303	0.27
683.627	0.27
683.951	0.27
684.275	0.27
684.599	0.27
684.923	0.27
685.246	0.27
685.57	0.27
685.893	0.27
686.217	0.27
686.541	0.27
686.864	0.27
687.187	0.27
687.511	0.27
687.834	0.27
688.157	0.26
688.48	0.26
688.803	0.26
689.126	0.26
689.449	0.26
689.772	0.26
690.095	0.26
690.418	0.26
690.741	0.26
691.064	0.26
691.386	0.26
691.709	0.26
692.032	0.26
692.354	0.26
692.677	0.26
692.999	0.26
693.322	0.26
693.644	0.26
693.966	0.26
694.288	0.26
694.611	0.26
694.933	0.26
695.255	0.26
695.577	0.26
695.899	0.26
696.221	0.26
696.543	0.26
696.864	0.26
697.186	0.26
697.508	0.26
697.83	0.26
698.151	0.26
698.473	0.26
698.794	0.26
699.116	0.26
699.437	0.26
699.758	0.26
700.08	0.26
700.401	0.26
700.722	0.26
701.043	0.26
701.364	0.26
701.685	0.26
702.006	0.26
702.327	0.26
702.648	0.26
702.969	0.26
703.29	0.26
703.61	0.26
703.931	0.26
704.252	0.26
704.572	0.26
704.893	0.26
705.213	0.26
705.534	0.26
705.854	0.26
706.174	0.26
706.494	0.26
706.815	0.26
707.135	0.26
707.455	0.26
707.775	0.26
708.095	0.26
708.415	0.26
708.735	0.26
709.054	0.26
709.374	0.26
709.694	0.26
710.014	0.26
710.333	0.26
710.653	0.26
710.972	0.26
711.292	0.26
711.611	0.26
711.931	0.26
712.25	0.26
712.569	0.26
712.888	0.26
713.207	0.26
713.526	0.26
713.846	0.25
714.164	0.25
714.483	0.25
714.802	0.25
715.121	0.25
715.44	0.25
715.759	0.25
716.077	0.25
716.396	0.25
716.714	0.25
717.033	0.25
717.351	0.25
717.67	0.25
717.988	0.25
718.306	0.25
718.625	0.25
718.943	0.25
719.261	0.25
719.579	0.25
719.897	0.25
720.215	0.25
720.533	0.25
720.851	0.25
721.169	0.25
721.486	0.25
721.804	0.25
722.122	0.25
722.439	0.24
722.757	0.24
723.074	0.24
723.392	0.24
723.709	0.24
724.027	0.24
724.344	0.24
724.661	0.24
724.978	0.24
725.295	0.24
725.612	0.24
725.929	0.24
726.246	0.24
726.563	0.24
726.88	0.24
727.197	0.24
727.514	0.24
727.83	0.24
728.147	0.24
728.464	0.24
728.78	0.24
729.097	0.24
729.413	0.24
729.73	0.24
730.046	0.24
730.362	0.24
730.678	0.24
730.995	0.24
731.311	0.24
731.627	0.24
731.943	0.24
732.259	0.24
732.575	0.24
732.89	0.24
733.206	0.24
733.522	0.24
733.838	0.24
734.153	0.24
734.469	0.24
734.784	0.24
735.1	0.24
735.415	0.24
735.731	0.24
736.046	0.23
736.361	0.23
736.676	0.23
736.992	0.23
737.307	0.23
737.622	0.23
737.937	0.23
738.252	0.23
738.567	0.23
738.881	0.23
739.196	0.23
739.511	0.23
739.826	0.23
740.14	0.23
740.455	0.23
740.769	0.23
741.084	0.23
741.398	0.23
741.712	0.23
742.027	0.23
742.341	0.23
742.655	0.23
742.969	0.23
743.283	0.23
743.597	0.23
743.911	0.23
744.225	0.23
744.539	0.23
744.853	0.23
745.167	0.23
745.48	0.23
745.794	0.23
746.108	0.23
746.421	0.23
746.735	0.23
747.048	0.23
747.362	0.23
747.675	0.23
747.988	0.23
748.301	0.23
748.615	0.23
748.928	0.23
749.241	0.23
749.554	0.23
749.867	0.23
750.18	0.23
750.492	0.23
750.805	0.23
751.118	0.23
751.431	0.23
751.743	0.23
752.056	0.23
752.368	0.23
752.681	0.23
752.993	0.23
753.306	0.23
753.618	0.23
753.93	0.23
754.242	0.23
754.554	0.23
754.867	0.23
755.179	0.23
755.491	0.23
755.802	0.23
756.114	0.23
756.426	0.23
756.738	0.23
757.05	0.23
757.361	0.23
757.673	0.23
757.984	0.23
758.296	0.23
758.607	0.23
758.919	0.23
759.23	0.23
759.541	0.23
759.853	0.22
760.164	0.22
760.475	0.22
760.786	0.22
761.097	0.22
761.408	0.22
761.719	0.22
762.03	0.22
762.34	0.22
762.651	0.22
762.962	0.22
763.272	0.22
763.583	0.22
763.893	0.22
764.204	0.22
764.514	0.22
764.825	0.22
765.135	0.22
765.445	0.22
765.755	0.22
766.066	0.22
766.376	0.22
766.686	0.22
766.996	0.22
767.306	0.22
767.615	0.22
767.925	0.22
768.235	0.22
768.545	0.22
768.854	0.22
769.164	0.22
769.473	0.22
769.783	0.22
770.092	0.22
770.402	0.22
770.711	0.22
771.02	0.22
771.329	0.22
771.639	0.22
771.948	0.22
772.257	0.22
772.566	0.22
772.875	0.22
773.184	0.22
773.492	0.22
773.801	0.22
774.11	0.21
774.418	0.21
774.727	0.21
775.036	0.21
775.344	0.21
775.653	0.21
775.961	0.21
776.269	0.21
776.578	0.21
776.886	0.21
777.194	0.21
777.502	0.21
777.81	0.21
778.118	0.21
778.426	0.21
778.734	0.21
779.042	0.21
779.35	0.21
779.657	0.21
779.965	0.21
780.273	0.21
780.58	0.21
780.888	0.21
781.195	0.21
781.502	0.21
781.81	0.22
782.117	0.22
782.424	0.22
782.732	0.22
783.039	0.22
783.346	0.22
783.653	0.22
783.96	0.22
784.267	0.22
784.573	0.22
784.88	0.22
785.187	0.22
785.494	0.22
785.8	0.22
786.107	0.21
786.413	0.21
786.72	0.21
787.026	0.21
787.333	0.21
787.639	0.21
787.945	0.21
788.251	0.21
788.557	0.21
788.863	0.21
789.169	0.21
789.475	0.21
789.781	0.21
790.087	0.21
790.393	0.21
790.699	0.21
791.004	0.21
791.31	0.21
791.616	0.21
791.921	0.21
792.227	0.21
792.532	0.21
792.837	0.21
793.143	0.21
793.448	0.21
793.753	0.21
794.058	0.21
794.363	0.21
794.668	0.21
794.973	0.21
795.278	0.21
795.583	0.21
795.888	0.21
796.193	0.21
796.497	0.21
796.802	0.21
797.107	0.21
797.411	0.21
797.716	0.21
798.02	0.21
798.324	0.21
798.629	0.21
798.933	0.21
799.237	0.21
799.541	0.21
799.845	0.21
800.149	0.21
800.453	0.21
800.757	0.21
801.061	0.21
801.365	0.21
801.669	0.21
801.972	0.21
802.276	0.21
802.58	0.21
802.883	0.21
803.187	0.21
803.49	0.21
803.793	0.21
804.097	0.21
804.4	0.21
804.703	0.21
805.006	0.21
805.309	0.21
805.612	0.21
805.915	0.21
806.218	0.21
806.521	0.21
806.824	0.21
807.127	0.21
807.429	0.21
807.732	0.21
808.034	0.21
808.337	0.21
808.639	0.21
808.942	0.21
809.244	0.2
809.546	0.2
809.849	0.2
810.151	0.2
810.453	0.2
810.755	0.2
811.057	0.2
811.359	0.2
811.661	0.2
811.963	0.2
812.265	0.2
812.566	0.2
812.868	0.2
813.17	0.2
813.471	0.2
813.773	0.2
814.074	0.2
814.376	0.2
814.677	0.2
814.978	0.2
815.279	0.2
815.581	0.2
815.882	0.2
816.183	0.2
816.484	0.2
816.785	0.2
817.086	0.2
817.386	0.2
817.687	0.2
817.988	0.2
818.289	0.2
818.589	0.2
818.89	0.2
819.19	0.2
819.491	0.2
819.791	0.2
820.092	0.2
820.392	0.2
820.692	0.2
820.992	0.2
821.292	0.2
821.592	0.2
821.892	0.2
822.192	0.2
822.492	0.2
822.792	0.2
823.092	0.2
823.391	0.2
823.691	0.2
823.991	0.2
824.29	0.2
824.59	0.2
824.889	0.2
825.189	0.2
825.488	0.2
825.787	0.2
826.086	0.2
826.385	0.2
826.685	0.2
826.984	0.2
827.283	0.2
827.582	0.2
827.88	0.2
828.179	0.2
828.478	0.2
828.777	0.2
829.075	0.2
829.374	0.2
829.672	0.2
829.971	0.2
830.269	0.2
830.568	0.2
830.866	0.2
831.164	0.2
831.462	0.2
831.761	0.2
832.059	0.2
832.357	0.2
832.655	0.2
832.952	0.2
833.25	0.2
833.548	0.2
833.846	0.2
834.144	0.2
834.441	0.2
834.739	0.2
835.036	0.2
835.334	0.2
835.631	0.2
835.928	0.2
836.226	0.2
836.523	0.2
836.82	0.2
837.117	0.2
837.414	0.19
837.711	0.2
838.008	0.19
838.305	0.2
838.602	0.2
838.899	0.19
839.195	0.2
839.492	0.19
839.789	0.19
840.085	0.19
840.382	0.19
840.678	0.19
840.974	0.19
841.271	0.19
841.567	0.19
841.863	0.19
842.159	0.19
842.455	0.19
842.751	0.19
843.047	0.19
843.343	0.19
843.639	0.19
843.935	0.19
844.231	0.19
844.526	0.19
844.822	0.19
845.118	0.19
845.413	0.19
845.709	0.19
846.004	0.19
846.299	0.19
846.595	0.19
846.89	0.19
847.185	0.19
847.48	0.19
847.775	0.19
848.07	0.19
848.365	0.19
848.66	0.19
848.955	0.19
849.25	0.19
849.544	0.19
849.839	0.19
850.134	0.19
850.428	0.19
850.723	0.19
851.017	0.19
851.311	0.19
851.606	0.19
851.9	0.19
852.194	0.19
852.488	0.19
852.782	0.19
853.076	0.19
853.37	0.19
853.664	0.19
853.958	0.19
854.252	0.19
854.546	0.19
854.839	0.19
855.133	0.19
855.426	0.19
855.72	0.19
856.013	0.19
856.307	0.19
856.6	0.19
856.893	0.19
857.187	0.19
857.48	0.19
857.773	0.19
858.066	0.19
858.359	0.19
858.652	0.19
858.945	0.19
859.238	0.19
859.53	0.19
859.823	0.19
860.116	0.19
860.408	0.19
860.701	0.19
860.993	0.19
861.286	0.2
861.578	0.2
861.87	0.2
862.163	0.2
862.455	0.2
862.747	0.2
863.039	0.2
863.331	0.19
863.623	0.19
863.915	0.19
864.207	0.19
864.498	0.2
864.79	0.2
865.082	0.2
865.373	0.2
865.665	0.2
865.956	0.2
866.248	0.2
866.539	0.2
866.831	0.2
867.122	0.2
867.413	0.2
867.704	0.2
867.995	0.2
868.286	0.2
868.577	0.2
868.868	0.2
869.159	0.19
869.45	0.19
869.741	0.19
870.031	0.19
870.322	0.19
870.612	0.19
870.903	0.19
871.193	0.19
871.484	0.19
871.774	0.19
872.064	0.19
872.355	0.19
872.645	0.19
872.935	0.19
873.225	0.19
873.515	0.19
873.805	0.19
874.095	0.19
874.384	0.19
874.674	0.19
874.964	0.19
875.253	0.19
875.543	0.19
875.833	0.19
876.122	0.19
876.411	0.19
876.701	0.19
876.99	0.19
