Data from In line play test T piece AgNO3 1mM AgNP synth sodium citrate background_Absorbance__22__14-04-45-107.txt Node

Date: Tue Feb 16 14:04:45 GMT 2021
User: premsi
Spectrometer: FLMS16051
Trigger mode: 0
Integration Time (sec): 7.062000E-2
Scans to average: 10
Electric dark correction enabled: true
Nonlinearity correction enabled: true
Boxcar width: 10
XAxis mode: Wavelengths
Number of Pixels in Spectrum: 2048
>>>>>Begin Spectral Data<<<<<
177.471	-0
177.858	-0
178.245	-0
178.632	-0
179.019	-0
179.406	-0
179.792	-0
180.179	-0
180.566	-0
180.953	-0
181.34	-0.85
181.726	-0.56
182.113	-0.5
182.499	0.13
182.886	0.78
183.273	1.2
183.659	3.23
184.045	1.66
184.432	1.33
184.818	1.56
185.205	1.8
185.591	1.71
185.977	2
186.363	2.31
186.75	1.91
187.136	1.73
187.522	1.59
187.908	1.45
188.294	1.49
188.68	1.55
189.066	1.69
189.452	1.8
189.838	2.04
190.224	2.78
190.609	-0
190.995	2.67
191.381	2.3
191.767	2.42
192.152	3
192.538	4.16
192.923	-0
193.309	-0
193.694	-0
194.08	-0
194.465	2.98
194.851	-0
195.236	-0
195.621	-0
196.007	-0
196.392	-0
196.777	-0
197.162	2.8
197.547	2.4
197.933	2.26
198.318	2
198.703	1.87
199.088	1.95
199.473	2.18
199.857	2.08
200.242	2.01
200.627	2.17
201.012	1.97
201.397	2
201.781	2.01
202.166	2.04
202.551	2
202.935	2.21
203.32	2.19
203.704	2.33
204.089	2.38
204.473	-0
204.858	-0
205.242	-0
205.626	-0
206.011	-0
206.395	-0
206.779	-0
207.163	-0
207.548	-0
207.932	-0
208.316	-0
208.7	-0
209.084	-0
209.468	-0
209.852	-0
210.235	-0
210.619	-0
211.003	-0
211.387	-0
211.771	-0
212.154	-0
212.538	2.79
212.921	2.95
213.305	2.71
213.689	2.6
214.072	-0
214.456	-0
214.839	2.73
215.222	2.35
215.606	2.19
215.989	2.08
216.372	2.04
216.755	2.08
217.139	2.19
217.522	2.29
217.905	2.41
218.288	2.31
218.671	2.48
219.054	2.44
219.437	2.42
219.82	2.6
220.203	2.52
220.586	2.5
220.968	2.56
221.351	2.54
221.734	2.53
222.117	2.52
222.499	2.59
222.882	2.6
223.264	2.74
223.647	2.96
224.029	3.26
224.412	-0
224.794	-0
225.177	-0
225.559	-0
225.941	-0
226.324	-0
226.706	-0
227.088	-0
227.47	-0
227.852	4.03
228.234	-0
228.616	-0
228.998	-0
229.38	-0
229.762	-0
230.144	-0
230.526	-0
230.908	-0
231.289	-0
231.671	-0
232.053	-0
232.435	3.7
232.816	3.81
233.198	3.76
233.579	3.82
233.961	3.62
234.342	3.65
234.724	3.83
235.105	3.95
235.486	-0
235.868	-0
236.249	4.46
236.63	3.97
237.011	3.73
237.392	3.67
237.773	3.8
238.154	3.66
238.536	3.72
238.917	4.05
239.297	3.99
239.678	4.39
240.059	4.77
240.44	4.36
240.821	3.99
241.202	4.15
241.582	4.14
241.963	4.45
242.344	4.84
242.724	4.68
243.105	5.1
243.485	3.83
243.866	3.91
244.246	3.8
244.627	3.95
245.007	4.49
245.387	4.71
245.768	4.14
246.148	4.27
246.528	4.32
246.908	4.61
247.288	3.85
247.668	3.7
248.048	3.71
248.428	3.92
248.808	3.94
249.188	3.91
249.568	3.77
249.948	3.83
250.328	3.6
250.708	3.55
251.087	3.47
251.467	3.64
251.847	3.67
252.226	3.61
252.606	3.57
252.985	3.6
253.365	3.69
253.744	4.02
254.124	3.85
254.503	3.84
254.882	3.79
255.262	4.32
255.641	5.52
256.02	-0
256.399	4.31
256.779	4.7
257.158	4.2
257.537	-0
257.916	4.34
258.295	4.21
258.674	-0
259.053	-0
259.431	4.43
259.81	4.02
260.189	-0
260.568	-0
260.946	-0
261.325	-0
261.704	4.84
262.082	-0
262.461	-0
262.839	-0
263.218	-0
263.596	-0
263.975	-0
264.353	-0
264.731	-0
265.11	-0
265.488	-0
265.866	-0
266.244	-0
266.622	-0
267	-0
267.378	-0
267.756	-0
268.134	-0
268.512	-0
268.89	-0
269.268	3.88
269.646	3.68
270.024	3.62
270.401	3.63
270.779	3.7
271.157	3.57
271.534	3.54
271.912	3.53
272.289	3.67
272.667	3.62
273.044	3.66
273.422	3.46
273.799	3.5
274.176	3.51
274.554	3.52
274.931	3.44
275.308	3.47
275.685	3.5
276.062	3.46
276.439	3.54
276.816	3.59
277.193	3.84
277.57	4.68
277.947	4.25
278.324	4.25
278.701	4.26
279.078	4.14
279.454	-0
279.831	4.76
280.208	4.05
280.584	4.42
280.961	4.3
281.338	4.11
281.714	4.12
282.091	-0
282.467	-0
282.843	-0
283.22	-0
283.596	-0
283.972	-0
284.349	-0
284.725	5.77
285.101	4.26
285.477	3.86
285.853	3.71
286.229	3.83
286.605	3.71
286.981	3.66
287.357	3.51
287.733	3.47
288.109	3.52
288.485	3.42
288.86	3.39
289.236	3.47
289.612	3.41
289.987	3.32
290.363	3.41
290.738	3.45
291.114	3.43
291.489	3.45
291.865	3.43
292.24	3.41
292.616	3.46
292.991	3.5
293.366	3.43
293.741	3.4
294.117	3.41
294.492	3.46
294.867	3.76
295.242	4.06
295.617	4.81
295.992	4.33
296.367	4.37
296.742	-0
297.117	-0
297.491	-0
297.866	-0
298.241	4.6
298.616	4.05
298.99	4.11
299.365	4.25
299.74	4.53
300.114	4.22
300.489	4.31
300.863	4.73
301.237	-0
301.612	-0
301.986	-0
302.36	-0
302.735	-0
303.109	4.28
303.483	4.12
303.857	4.03
304.231	4.05
304.605	3.88
304.979	3.78
305.353	3.57
305.727	3.57
306.101	3.8
306.475	3.73
306.849	3.63
307.223	3.55
307.596	3.5
307.97	3.76
308.344	3.62
308.717	3.56
309.091	3.44
309.464	3.51
309.838	3.46
310.211	3.52
310.585	3.54
310.958	3.61
311.331	3.59
311.705	3.66
312.078	3.6
312.451	3.59
312.824	3.63
313.197	3.58
313.57	3.51
313.943	3.42
314.316	3.42
314.689	3.6
315.062	3.91
315.435	4.22
315.808	3.86
316.181	4.02
316.553	5.42
316.926	-0
317.299	4.96
317.671	-0
318.044	4.16
318.417	-0
318.789	-0
319.161	-0
319.534	4.98
319.906	-0
320.279	-0
320.651	-0
321.023	-0
321.395	-0
321.767	-0
322.14	-0
322.512	-0
322.884	-0
323.256	-0
323.628	-0
324	-0
324.371	-0
324.743	-0
325.115	-0
325.487	-0
325.859	-0
326.23	-0
326.602	-0
326.973	-0
327.345	-0
327.717	-0
328.088	-0
328.459	-0
328.831	-0
329.202	-0
329.573	-0
329.945	-0
330.316	-0
330.687	-0
331.058	-0
331.429	-0
331.8	-0
332.171	-0
332.542	-0
332.913	-0
333.284	-0
333.655	-0
334.026	-0
334.397	-0
334.767	-0
335.138	-0
335.509	-0
335.879	-0
336.25	-0
336.62	-0
336.991	-0
337.361	-0
337.732	-0
338.102	-0
338.472	-0
338.842	-0
339.213	-0
339.583	-0
339.953	-0
340.323	-0
340.693	-0
341.063	-0
341.433	-0
341.803	-0
342.173	-0
342.543	-0
342.913	-0
343.282	-0
343.652	-0
344.022	-0
344.391	-0
344.761	-0
345.13	-0
345.5	-0
345.869	4.51
346.239	5.05
346.608	4.02
346.978	4.19
347.347	3.66
347.716	3.56
348.085	3.48
348.455	3.54
348.824	3.57
349.193	3.57
349.562	3.49
349.931	3.49
350.3	3.57
350.669	3.73
351.038	3.82
351.406	3.84
351.775	3.76
352.144	4.29
352.513	3.93
352.881	4.78
353.25	4.15
353.619	-0
353.987	-0
354.356	-0
354.724	-0
355.092	-0
355.461	-0
355.829	-0
356.197	-0
356.566	-0
356.934	-0
357.302	-0
357.67	-0
358.038	-0
358.406	-0
358.774	-0
359.142	-0
359.51	-0
359.878	-0
360.246	-0
360.614	-0
360.981	-0
361.349	-0
361.717	-0
362.084	-0
362.452	-0
362.819	-0
363.187	-0
363.554	-0
363.922	-0
364.289	-0
364.656	-0
365.024	-0
365.391	4.51
365.758	3.95
366.125	3.79
366.492	3.79
366.859	3.91
367.227	3.73
367.593	3.63
367.96	3.53
368.327	3.51
368.694	3.46
369.061	3.53
369.428	3.8
369.794	3.55
370.161	3.53
370.528	3.61
370.894	3.69
371.261	3.52
371.627	3.56
371.994	3.44
372.36	3.42
372.727	3.45
373.093	3.71
373.459	3.75
373.826	3.55
374.192	3.63
374.558	3.71
374.924	3.73
375.29	4
375.656	3.96
376.022	3.67
376.388	3.67
376.754	3.88
377.12	3.55
377.486	3.52
377.852	3.51
378.217	3.56
378.583	3.57
378.949	3.47
379.314	3.45
379.68	3.58
380.045	4.04
380.411	3.87
380.776	3.67
381.142	3.92
381.507	4.39
381.872	-0
382.238	-0
382.603	-0
382.968	4.59
383.333	-0
383.698	-0
384.063	-0
384.428	-0
384.793	-0
385.158	-0
385.523	-0
385.888	-0
386.253	-0
386.618	-0
386.982	-0
387.347	-0
387.712	3.9
388.076	3.66
388.441	3.8
388.805	3.43
389.17	3.39
389.534	3.41
389.898	3.34
390.263	3.35
390.627	3.26
390.991	3.21
391.356	3.05
391.72	3.05
392.084	3.07
392.448	3.17
392.812	3.24
393.176	3.23
393.54	3.24
393.904	3.19
394.268	3.13
394.631	3.28
394.995	3.27
395.359	3.39
395.723	3.45
396.086	3.36
396.45	3.52
396.813	3.4
397.177	3.41
397.54	3.46
397.904	3.37
398.267	3.59
398.63	3.73
398.994	3.98
399.357	3.98
399.72	-0
400.083	3.99
400.446	3.88
400.809	4.33
401.173	-0
401.535	-0
401.898	-0
402.261	-0
402.624	-0
402.987	-0
403.35	-0
403.712	-0
404.075	-0
404.438	-0
404.8	-0
405.163	-0
405.525	-0
405.888	-0
406.25	-0
406.613	-0
406.975	-0
407.337	-0
407.7	-0
408.062	-0
408.424	-0
408.786	-0
409.148	-0
409.51	-0
409.872	-0
410.234	-0
410.596	-0
410.958	-0
411.32	-0
411.681	-0
412.043	-0
412.405	-0
412.766	-0
413.128	-0
413.49	-0
413.851	-0
414.213	-0
414.574	-0
414.935	-0
415.297	-0
415.658	-0
416.019	-0
416.38	-0
416.742	-0
417.103	-0
417.464	-0
417.825	-0
418.186	-0
418.547	-0
418.908	-0
419.268	-0
419.629	-0
419.99	-0
420.351	-0
420.711	-0
421.072	-0
421.433	-0
421.793	-0
422.154	-0
422.514	-0
422.874	-0
423.235	-0
423.595	-0
423.955	-0
424.316	-0
424.676	-0
425.036	-0
425.396	-0
425.756	-0
426.116	-0
426.476	-0
426.836	-0
427.196	-0
427.556	-0
427.915	-0
428.275	-0
428.635	-0
428.995	-0
429.354	-0
429.714	-0
430.073	-0
430.433	-0
430.792	-0
431.152	-0
431.511	-0
431.87	-0
432.229	-0
432.589	-0
432.948	-0
433.307	-0
433.666	-0
434.025	-0
434.384	-0
434.743	-0
435.102	-0
435.461	-0
435.82	-0
436.178	-0
436.537	-0
436.896	-0
437.254	-0
437.613	-0
437.972	-0
438.33	-0
438.689	-0
439.047	-0
439.405	-0
439.764	-0
440.122	-0
440.48	-0
440.838	-0
441.196	-0
441.555	-0
441.913	-0
442.271	-0
442.629	-0
442.987	-0
443.344	-0
443.702	-0
444.06	-0
444.418	-0
444.776	-0
445.133	-0
445.491	-0
445.848	-0
446.206	-0
446.563	-0
446.921	-0
447.278	-0
447.636	-0
447.993	-0
448.35	-0
448.707	-0
449.064	-0
449.422	-0
449.779	-0
450.136	-0
450.493	-0
450.85	-0
451.206	-0
451.563	-0
451.92	-0
452.277	-0
452.634	-0
452.99	-0
453.347	-0
453.704	-0
454.06	-0
454.417	-0
454.773	-0
455.129	-0
455.486	-0
455.842	-0
456.198	-0
456.555	-0
456.911	-0
457.267	-0
457.623	-0
457.979	-0
458.335	-0
458.691	-0
459.047	-0
459.403	-0
459.759	-0
460.114	-0
460.47	-0
460.826	-0
461.181	-0
461.537	-0
461.892	-0
462.248	-0
462.603	-0
462.959	-0
463.314	-0
463.67	-0
464.025	-0
464.38	-0
464.735	-0
465.09	-0
465.445	-0
465.801	-0
466.156	-0
466.51	-0
466.865	-0
467.22	-0
467.575	-0
467.93	-0
468.285	-0
468.639	-0
468.994	-0
469.349	-0
469.703	-0
470.058	-0
470.412	-0
470.766	-0
471.121	-0
471.475	-0
471.829	-0
472.184	-0
472.538	-0
472.892	-0
473.246	-0
473.6	-0
473.954	-0
474.308	-0
474.662	-0
475.016	-0
475.37	-0
475.723	-0
476.077	-0
476.431	-0
476.785	-0
477.138	-0
477.492	-0
477.845	-0
478.199	-0
478.552	-0
478.905	-0
479.259	-0
479.612	-0
479.965	-0
480.318	-0
480.672	-0
481.025	-0
481.378	-0
481.731	-0
482.084	-0
482.437	-0
482.789	-0
483.142	-0
483.495	-0
483.848	-0
484.2	-0
484.553	-0
484.906	-0
485.258	-0
485.611	-0
485.963	-0
486.316	-0
486.668	-0
487.02	-0
487.373	-0
487.725	-0
488.077	-0
488.429	-0
488.781	-0
489.133	-0
489.485	-0
489.837	-0
490.189	-0
490.541	-0
490.893	-0
491.245	-0
491.596	-0
491.948	-0
492.3	-0
492.651	-0
493.003	-0
493.354	-0
493.706	-0
494.057	-0
494.408	-0
494.76	-0
495.111	-0
495.462	-0
495.813	-0
496.164	-0
496.515	-0
496.867	-0
497.217	-0
497.568	-0
497.919	-0
498.27	-0
498.621	-0
498.972	-0
499.322	-0
499.673	-0
500.024	-0
500.374	-0
500.725	-0
501.075	-0
501.426	-0
501.776	-0
502.126	-0
502.477	-0
502.827	-0
503.177	-0
503.527	-0
503.877	-0
504.227	-0
504.577	-0
504.927	-0
505.277	-0
505.627	-0
505.977	-0
506.327	-0
506.677	-0
507.026	-0
507.376	-0
507.725	-0
508.075	-0
508.424	-0
508.774	-0
509.123	-0
509.473	-0
509.822	-0
510.171	-0
510.521	-0
510.87	-0
511.219	-0
511.568	-0
511.917	-0
512.266	-0
512.615	-0
512.964	-0
513.313	-0
513.661	-0
514.01	-0
514.359	-0
514.708	-0
515.056	-0
515.405	-0
515.753	-0
516.102	-0
516.45	-0
516.799	-0
517.147	-0
517.495	-0
517.843	-0
518.192	-0
518.54	-0
518.888	-0
519.236	-0
519.584	-0
519.932	-0
520.28	-0
520.628	-0
520.975	-0
521.323	-0
521.671	-0
522.019	-0
522.366	-0
522.714	-0
523.061	-0
523.409	-0
523.756	-0
524.104	-0
524.451	-0
524.798	-0
525.146	-0
525.493	-0
525.84	-0
526.187	-0
526.534	-0
526.881	-0
527.228	-0
527.575	-0
527.922	-0
528.269	-0
528.616	-0
528.962	-0
529.309	-0
529.656	-0
530.002	-0
530.349	-0
530.695	-0
531.042	-0
531.388	-0
531.735	-0
532.081	-0
532.427	-0
532.773	-0
533.12	-0
533.466	-0
533.812	-0
534.158	-0
534.504	-0
534.85	-0
535.196	-0
535.541	-0
535.887	-0
536.233	-0
536.579	-0
536.924	-0
537.27	-0
537.615	-0
537.961	-0
538.306	-0
538.652	-0
538.997	-0
539.343	-0
539.688	-0
540.033	-0
540.378	-0
540.723	-0
541.068	-0
541.414	-0
541.758	-0
542.103	-0
542.448	-0
542.793	-0
543.138	-0
543.483	-0
543.827	-0
544.172	-0
544.517	-0
544.861	-0
545.206	-0
545.55	-0
545.895	-0
546.239	-0
546.583	-0
546.928	-0
547.272	-0
547.616	-0
547.96	-0
548.304	-0
548.648	-0
548.992	-0
549.336	-0
549.68	-0
550.024	-0
550.368	-0
550.712	-0
551.055	-0
551.399	-0
551.743	-0
552.086	-0
552.43	-0
552.773	-0
553.116	-0
553.46	-0
553.803	-0
554.146	-0
554.49	-0
554.833	-0
555.176	-0
555.519	-0
555.862	-0
556.205	-0
556.548	-0
556.891	-0
557.234	-0
557.577	-0
557.919	-0
558.262	-0
558.605	-0
558.947	-0
559.29	-0
559.632	-0
559.975	-0
560.317	-0
560.66	-0
561.002	-0
561.344	-0
561.686	-0
562.029	-0
562.371	-0
562.713	-0
563.055	-0
563.397	-0
563.739	-0
564.081	-0
564.422	-0
564.764	-0
565.106	-0
565.448	-0
565.789	-0
566.131	-0
566.472	-0
566.814	-0
567.155	-0
567.497	-0
567.838	-0
568.179	-0
568.521	-0
568.862	-0
569.203	-0
569.544	-0
569.885	-0
570.226	-0
570.567	-0
570.908	-0
571.249	-0
571.59	-0
571.931	-0
572.271	-0
572.612	-0
572.953	-0
573.293	-0
573.634	-0
573.974	-0
574.315	-0
574.655	-0
574.995	-0
575.336	-0
575.676	-0
576.016	-0
576.356	-0
576.696	-0
577.036	-0
577.376	-0
577.716	-0
578.056	-0
578.396	-0
578.736	-0
579.076	-0
579.415	-0
579.755	-0
580.095	-0
580.434	-0
580.774	-0
581.113	-0
581.453	-0
581.792	-0
582.131	-0
582.471	-0
582.81	-0
583.149	-0
583.488	-0
583.827	-0
584.166	-0
584.505	-0
584.844	-0
585.183	-0
585.522	-0
585.861	-0
586.199	-0
586.538	-0
586.877	-0
587.215	-0
587.554	-0
587.892	-0
588.231	-0
588.569	-0
588.907	-0
589.246	-0
589.584	-0
589.922	-0
590.26	-0
590.598	-0
590.936	-0
591.274	-0
591.612	-0
591.95	-0
592.288	-0
592.626	-0
592.964	-0
593.301	-0
593.639	-0
593.977	-0
594.314	-0
594.652	-0
594.989	-0
595.327	-0
595.664	-0
596.001	-0
596.339	-0
596.676	-0
597.013	-0
597.35	-0
597.687	-0
598.024	-0
598.361	-0
598.698	-0
599.035	-0
599.372	-0
599.708	-0
600.045	-0
600.382	-0
600.718	-0
601.055	-0
601.392	-0
601.728	-0
602.064	-0
602.401	-0
602.737	-0
603.073	-0
603.41	-0
603.746	-0
604.082	-0
604.418	-0
604.754	-0
605.09	-0
605.426	-0
605.762	-0
606.098	-0
606.434	-0
606.769	-0
607.105	-0
607.441	-0
607.776	-0
608.112	-0
608.447	-0
608.783	-0
609.118	-0
609.453	-0
609.789	-0
610.124	-0
610.459	-0
610.794	-0
611.129	-0
611.464	-0
611.799	-0
612.134	-0
612.469	-0
612.804	-0
613.139	-0
613.474	-0
613.808	-0
614.143	-0
614.478	-0
614.812	-0
615.147	-0
615.481	-0
615.816	-0
616.15	-0
616.484	-0
616.818	-0
617.153	-0
617.487	-0
617.821	-0
618.155	-0
618.489	-0
618.823	-0
619.157	-0
619.491	-0
619.824	-0
620.158	-0
620.492	-0
620.826	-0
621.159	-0
621.493	-0
621.826	-0
622.16	-0
622.493	-0
622.826	-0
623.16	-0
623.493	-0
623.826	-0
624.159	-0
624.492	-0
624.825	-0
625.158	-0
625.491	-0
625.824	-0
626.157	-0
626.49	-0
626.823	-0
627.155	-0
627.488	-0
627.821	-0
628.153	-0
628.486	-0
628.818	-0
629.151	-0
629.483	-0
629.815	-0
630.148	-0
630.48	-0
630.812	-0
631.144	-0
631.476	-0
631.808	-0
632.14	-0
632.472	-0
632.804	-0
633.136	-0
633.467	-0
633.799	-0
634.131	-0
634.462	-0
634.794	-0
635.125	-0
635.457	-0
635.788	-0
636.12	-0
636.451	-0
636.782	-0
637.113	-0
637.444	-0
637.776	-0
638.107	-0
638.438	-0
638.769	-0
639.099	-0
639.43	-0
639.761	-0
640.092	-0
640.422	-0
640.753	-0
641.084	-0
641.414	-0
641.745	-0
642.075	-0
642.406	-0
642.736	-0
643.066	-0
643.396	-0
643.727	-0
644.057	-0
644.387	-0
644.717	-0
645.047	-0
645.377	-0
645.707	-0
646.037	-0
646.366	-0
646.696	-0
647.026	-0
647.355	-0
647.685	-0
648.015	-0
648.344	-0
648.673	-0
649.003	-0
649.332	-0
649.661	-0
649.991	-0
650.32	-0
650.649	-0
650.978	-0
651.307	-0
651.636	-0
651.965	-0
652.294	-0
652.623	-0
652.951	-0
653.28	-0
653.609	-0
653.937	-0
654.266	-0
654.594	-0
654.923	-0
655.251	-0
655.58	-0
655.908	-0
656.236	-0
656.565	-0
656.893	-0
657.221	-0
657.549	-0
657.877	-0
658.205	-0
658.533	-0
658.861	-0
659.188	-0
659.516	-0
659.844	-0
660.171	-0
660.499	-0
660.827	-0
661.154	-0
661.482	-0
661.809	-0
662.136	-0
662.464	-0
662.791	-0
663.118	-0
663.445	-0
663.772	-0
664.099	-0
664.426	-0
664.753	-0
665.08	-0
665.407	-0
665.734	-0
666.06	-0
666.387	-0
666.714	-0
667.04	-0
667.367	-0
667.693	-0
668.02	-0
668.346	-0
668.672	-0
668.999	-0
669.325	-0
669.651	-0
669.977	-0
670.303	-0
670.629	-0
670.955	-0
671.281	-0
671.607	-0
671.933	-0
672.258	-0
672.584	-0
672.91	-0
673.235	-0
673.561	-0
673.886	-0
674.212	-0
674.537	-0
674.863	-0
675.188	-0
675.513	-0
675.838	-0
676.163	-0
676.489	-0
676.814	-0
677.139	-0
677.464	-0
677.788	-0
678.113	-0
678.438	-0
678.763	-0
679.087	-0
679.412	-0
679.737	-0
680.061	-0
680.386	-0
680.71	-0
681.034	-0
681.359	-0
681.683	-0
682.007	-0
682.331	-0
682.655	-0
682.979	-0
683.303	-0
683.627	-0
683.951	-0
684.275	-0
684.599	-0
684.923	-0
685.246	-0
685.57	-0
685.893	-0
686.217	-0
686.541	-0
686.864	-0
687.187	-0
687.511	-0
687.834	-0
688.157	-0
688.48	-0
688.803	-0
689.126	-0
689.449	-0
689.772	-0
690.095	-0
690.418	-0
690.741	-0
691.064	-0
691.386	-0
691.709	-0
692.032	-0
692.354	-0
692.677	-0
692.999	-0
693.322	-0
693.644	-0
693.966	-0
694.288	-0
694.611	-0
694.933	-0
695.255	-0
695.577	-0
695.899	-0
696.221	-0
696.543	-0
696.864	-0
697.186	-0
697.508	-0
697.83	-0
698.151	-0
698.473	-0
698.794	-0
699.116	-0
699.437	-0
699.758	-0
700.08	-0
700.401	-0
700.722	-0
701.043	-0
701.364	-0
701.685	-0
702.006	-0
702.327	-0
702.648	-0
702.969	-0
703.29	-0
703.61	-0
703.931	-0
704.252	-0
704.572	-0
704.893	-0
705.213	-0
705.534	-0
705.854	-0
706.174	-0
706.494	-0
706.815	-0
707.135	-0
707.455	-0
707.775	-0
708.095	-0
708.415	-0
708.735	-0
709.054	-0
709.374	-0
709.694	-0
710.014	-0
710.333	-0
710.653	-0
710.972	-0
711.292	-0
711.611	-0
711.931	-0
712.25	-0
712.569	-0
712.888	-0
713.207	-0
713.526	-0
713.846	-0
714.164	-0
714.483	-0
714.802	-0
715.121	-0
715.44	-0
715.759	-0
716.077	-0
716.396	-0
716.714	-0
717.033	-0
717.351	-0
717.67	-0
717.988	-0
718.306	-0
718.625	-0
718.943	-0
719.261	-0
719.579	-0
719.897	-0
720.215	-0
720.533	-0
720.851	-0
721.169	-0
721.486	-0
721.804	-0
722.122	-0
722.439	-0
722.757	-0
723.074	-0
723.392	-0
723.709	-0
724.027	-0
724.344	-0
724.661	-0
724.978	-0
725.295	-0
725.612	-0
725.929	-0
726.246	-0
726.563	-0
726.88	-0
727.197	-0
727.514	-0
727.83	-0
728.147	-0
728.464	-0
728.78	-0
729.097	-0
729.413	-0
729.73	-0
730.046	-0
730.362	-0
730.678	-0
730.995	-0
731.311	-0
731.627	-0
731.943	-0
732.259	-0
732.575	-0
732.89	-0
733.206	-0
733.522	-0
733.838	-0
734.153	-0
734.469	-0
734.784	-0
735.1	-0
735.415	-0
735.731	-0
736.046	-0
736.361	-0
736.676	-0
736.992	-0
737.307	-0
737.622	-0
737.937	-0
738.252	-0
738.567	-0
738.881	-0
739.196	-0
739.511	-0
739.826	-0
740.14	-0
740.455	-0
740.769	-0
741.084	-0
741.398	-0
741.712	-0
742.027	-0
742.341	-0
742.655	-0
742.969	-0
743.283	-0
743.597	-0
743.911	-0
744.225	-0
744.539	-0
744.853	-0
745.167	-0
745.48	-0
745.794	-0
746.108	-0
746.421	-0
746.735	-0
747.048	-0
747.362	-0
747.675	-0
747.988	-0
748.301	-0
748.615	-0
748.928	-0
749.241	-0
749.554	-0
749.867	-0
750.18	-0
750.492	-0
750.805	-0
751.118	-0
751.431	-0
751.743	-0
752.056	-0
752.368	-0
752.681	-0
752.993	-0
753.306	-0
753.618	-0
753.93	-0
754.242	-0
754.554	-0
754.867	-0
755.179	-0
755.491	-0
755.802	-0
756.114	-0
756.426	-0
756.738	-0
757.05	-0
757.361	-0
757.673	-0
757.984	-0
758.296	-0
758.607	-0
758.919	-0
759.23	-0
759.541	-0
759.853	-0
760.164	-0
760.475	-0
760.786	-0
761.097	-0
761.408	-0
761.719	-0
762.03	-0
762.34	-0
762.651	-0
762.962	-0
763.272	-0
763.583	-0
763.893	-0
764.204	-0
764.514	-0
764.825	-0
765.135	-0
765.445	-0
765.755	-0
766.066	-0
766.376	-0
766.686	-0
766.996	-0
767.306	-0
767.615	-0
767.925	-0
768.235	-0
768.545	-0
768.854	-0
769.164	-0
769.473	-0
769.783	-0
770.092	-0
770.402	-0
770.711	-0
771.02	-0
771.329	-0
771.639	-0
771.948	-0
772.257	-0
772.566	-0
772.875	-0
773.184	-0
773.492	-0
773.801	-0
774.11	-0
774.418	-0
774.727	-0
775.036	-0
775.344	-0
775.653	-0
775.961	-0
776.269	-0
776.578	-0
776.886	-0
777.194	-0
777.502	-0
777.81	-0
778.118	-0
778.426	-0
778.734	-0
779.042	-0
779.35	-0
779.657	-0
779.965	-0
780.273	-0
780.58	-0
780.888	-0
781.195	-0
781.502	-0
781.81	-0
782.117	-0
782.424	-0
782.732	-0
783.039	-0
783.346	-0
783.653	-0
783.96	-0
784.267	-0
784.573	-0
784.88	-0
785.187	-0
785.494	-0
785.8	-0
786.107	-0
786.413	-0
786.72	-0
787.026	-0
787.333	-0
787.639	-0
787.945	-0
788.251	-0
788.557	-0
788.863	-0
789.169	-0
789.475	-0
789.781	-0
790.087	-0
790.393	-0
790.699	-0
791.004	-0
791.31	-0
791.616	-0
791.921	-0
792.227	-0
792.532	-0
792.837	-0
793.143	-0
793.448	-0
793.753	-0
794.058	-0
794.363	-0
794.668	-0
794.973	-0
795.278	-0
795.583	-0
795.888	-0
796.193	-0
796.497	-0
796.802	-0
797.107	-0
797.411	-0
797.716	-0
798.02	-0
798.324	-0
798.629	-0
798.933	-0
799.237	-0
799.541	-0
799.845	-0
800.149	-0
800.453	-0
800.757	-0
801.061	-0
801.365	-0
801.669	-0
801.972	-0
802.276	-0
802.58	-0
802.883	-0
803.187	4.18
803.49	4.2
803.793	-0
804.097	-0
804.4	-0
804.703	-0
805.006	-0
805.309	-0
805.612	-0
805.915	-0
806.218	-0
806.521	-0
806.824	-0
807.127	-0
807.429	-0
807.732	-0
808.034	-0
808.337	-0
808.639	-0
808.942	-0
809.244	-0
809.546	-0
809.849	-0
810.151	-0
810.453	-0
810.755	-0
811.057	-0
811.359	-0
811.661	-0
811.963	-0
812.265	-0
812.566	-0
812.868	-0
813.17	-0
813.471	-0
813.773	-0
814.074	-0
814.376	-0
814.677	3.84
814.978	3.91
815.279	4.11
815.581	4.72
815.882	3.69
816.183	3.34
816.484	3.31
816.785	3.39
817.086	3.05
817.386	3.06
817.687	3.02
817.988	2.91
818.289	2.84
818.589	2.83
818.89	2.81
819.19	2.89
819.491	2.89
819.791	2.86
820.092	2.82
820.392	2.92
820.692	2.98
820.992	2.98
821.292	2.96
821.592	2.87
821.892	2.73
822.192	2.72
822.492	2.81
822.792	2.8
823.092	2.88
823.391	2.93
823.691	2.93
823.991	3.02
824.29	3.11
824.59	3.03
824.889	2.93
825.189	3.02
825.488	2.9
825.787	2.92
826.086	3.06
826.385	3.29
826.685	3.39
826.984	3.32
827.283	3.28
827.582	3.34
827.88	3.72
828.179	3.78
828.478	-0
828.777	4.26
829.075	4.2
829.374	3.06
829.672	3.01
829.971	2.97
830.269	2.99
830.568	3.05
830.866	3.27
831.164	3.41
831.462	3.31
831.761	3.61
832.059	3.41
832.357	3.46
832.655	3.16
832.952	2.98
833.25	3.1
833.548	3.16
833.846	3.41
834.144	3.2
834.441	3.27
834.739	3.39
835.036	3.33
835.334	3.06
835.631	3.45
835.928	4.56
836.226	-0
836.523	3.28
836.82	3.15
837.117	3.04
837.414	3.01
837.711	3.09
838.008	3.11
838.305	3.05
838.602	2.97
838.899	3.25
839.195	3
839.492	2.95
839.789	2.91
840.085	2.95
840.382	3.16
840.678	3.23
840.974	3.02
841.271	2.95
841.567	3.16
841.863	3.05
842.159	2.84
842.455	2.67
842.751	2.75
843.047	2.69
843.343	2.77
843.639	2.92
843.935	2.91
844.231	2.94
844.526	2.98
844.822	2.94
845.118	2.9
845.413	3.29
845.709	4.08
846.004	-0
846.299	3.44
846.595	3.42
846.89	3.4
847.185	3.59
847.48	-0
847.775	-0
848.07	-0
848.365	-0
848.66	-0
848.955	-0
849.25	-0
849.544	-0
849.839	-0
850.134	-0
850.428	-0
850.723	-0
851.017	-0
851.311	-0
851.606	4.45
851.9	3.35
852.194	3.6
852.488	3.45
852.782	3.4
853.076	3.13
853.37	3.3
853.664	3.64
853.958	3.48
854.252	3.76
854.546	3.35
854.839	3.09
855.133	3.54
855.426	3.32
855.72	3.23
856.013	-0
856.307	-0
856.6	3.27
856.893	3.13
857.187	4.3
857.48	3.7
857.773	3.73
858.066	-0
858.359	-0
858.652	-0
858.945	-0
859.238	-0
859.53	4.27
859.823	2.91
860.116	2.91
860.408	2.79
860.701	2.73
860.993	2.75
861.286	2.74
861.578	2.79
861.87	2.97
862.163	2.82
862.455	3.33
862.747	-0
863.039	-0
863.331	3.76
863.623	3.23
863.915	2.97
864.207	2.78
864.498	2.58
864.79	2.43
865.082	2.47
865.373	2.55
865.665	2.53
865.956	2.57
866.248	2.53
866.539	2.67
866.831	3.01
867.122	3.11
867.413	2.88
867.704	2.74
867.995	2.59
868.286	2.63
868.577	2.49
868.868	2.39
869.159	2.3
869.45	2.46
869.741	2.7
870.031	3.05
870.322	2.82
870.612	3.22
870.903	-0
871.193	-0
871.484	-0
871.774	-0
872.064	-0
872.355	-0
872.645	-0
872.935	-0
873.225	-0
873.515	-0
873.805	-0
874.095	3.79
874.384	3.42
874.674	-0
874.964	-0
875.253	-0
875.543	-0
875.833	2.87
876.122	2.58
876.411	2.95
876.701	2.71
876.99	2.45
